Time,Voltage
0.0,0.0
0.002000400080016003,5.451935805796114
0.004000800160032006,9.779714399452722
0.006001200240048009,12.287963134269042
0.008001600320064013,12.975097746583856
0.010002000400080016,12.533323356430426
0.012002400480096018,12.08363265061334
0.014002800560112022,12.747023316051838
0.016003200640128026,15.215715469964934
0.01800360072014403,19.48814983347575
0.020004000800160033,24.86898871648548
0.022004400880176037,30.234119813194884
0.024004800960192037,34.45944073917926
0.02600520104020804,36.84964356219672
0.028005601120224044,37.40321857891408
0.030006001200240048,36.8124552684678
0.03200640128025605,36.19844042225788
0.03400680136027205,36.682275517852645
0.03600720144028806,38.95629408361752
0.03800760152030406,43.019059800686414
0.040008001600320066,48.17536741017153
0.042008401680336066,53.30124642503844
0.04400880176035207,57.27274557760534
0.04600920184036807,59.39471725490268
0.048009601920384073,59.665821174138024
0.05001000200040008,58.778525229247315
0.05201040208041608,57.854103507998175
0.05401080216043209,58.01385354759429
0.05601120224044809,59.95031357546867
0.058011602320464095,63.66226048196279
0.060012002400480095,68.45471059286888
0.0620124024804961,73.20392324134727
0.0640128025605121,76.78618507026646
0.06601320264052811,78.50659431729316
0.0680136027205441,78.36406433507274
0.07001400280056011,77.05132427757893
0.07201440288057612,75.68991695219954
0.07401480296059212,75.40141590561188
0.07601520304060812,76.87864249024264
0.07801560312062412,80.1206636581189
0.08001600320064013,84.43279255020151
0.08201640328065612,88.69159188082759
0.08401680336067213,91.77365804842833
0.08601720344068814,92.9844052249711
0.08801760352070415,92.32306867658875
0.09001800360072014,90.48270524660195
0.09201840368073615,88.5851910006294
0.09401880376075215,87.75243810197004
0.09601920384076815,88.67761166418543
0.09801960392078415,91.36012732782407
0.10002000400080016,95.10565162951535
0.10202040408081617,98.79110516319993
0.10402080416083216,101.29344646480315
0.10602120424084817,101.91845587294316
0.10802160432086418,100.66573861828172
0.11002200440088018,98.2287250728689
0.11202240448089618,95.72966815932445
0.11402280456091218,94.29085998818935
0.11602320464092819,94.60584847052507
0.11802360472094418,96.67443465285487
0.12002400480096019,99.80267284282714
0.1220244048809762,102.86787352552129
0.1240248049609922,104.74738700185738
0.1260252050410082,104.74738700185739
0.1280256051210242,102.86787352552129
0.1300260052010402,99.80267284282714
0.13202640528105622,96.6744346528549
0.13402680536107223,94.60584847052509
0.1360272054410882,94.29085998818935
0.1380276055211042,95.72966815932445
0.14002800560112022,98.22872507286885
0.14202840568113623,100.6657386182817
0.14402880576115223,101.91845587294317
0.14602920584116824,101.29344646480315
0.14802960592118425,98.79110516319996
0.15003000600120023,95.10565162951538
0.15203040608121624,91.36012732782409
0.15403080616123224,88.67761166418543
0.15603120624124825,87.75243810197004
0.15803160632126426,88.58519100062937
0.16003200640128026,90.48270524660194
0.16203240648129627,92.32306867658876
0.16403280656131225,92.9844052249711
0.16603320664132826,91.77365804842835
0.16803360672134426,88.69159188082759
0.17003400680136027,84.4327925502015
0.17203440688137628,80.12066365811891
0.17403480696139229,76.87864249024263
0.1760352070414083,75.40141590561188
0.17803560712142427,75.68991695219952
0.18003600720144028,77.05132427757891
0.1820364072814563,78.36406433507271
0.1840368073614723,78.50659431729316
0.1860372074414883,76.78618507026644
0.1880376075215043,73.20392324134728
0.19003800760152031,68.45471059286888
0.1920384076815363,63.662260481962804
0.1940388077615523,59.950313575468655
0.1960392078415683,58.01385354759428
0.19803960792158432,57.85410350799813
0.20004000800160032,58.77852522924731
0.20204040808161633,59.66582117413801
0.20404080816163234,59.39471725490268
0.20604120824164834,57.272745577605335
0.20804160832166432,53.30124642503847
0.21004200840168033,48.17536741017151
0.21204240848169634,43.019059800686414
0.21404280856171234,38.95629408361753
0.21604320864172835,36.68227551785262
0.21804360872174436,36.198440422257875
0.22004400880176037,36.81245526846772
0.22204440888177635,37.40321857891405
0.22404480896179235,36.84964356219669
0.22604520904180836,34.45944073917926
0.22804560912182437,30.234119813194855
0.23004600920184037,24.868988716485514
0.23204640928185638,19.48814983347575
0.2340468093618724,15.215715469964938
0.23604720944188837,12.747023316051806
0.23804760952190437,12.083632650613321
0.24004800960192038,12.533323356430396
0.2420484096819364,12.975097746583867
0.2440488097619524,12.287963134269035
0.2460492098419684,9.779714399452743
0.2480496099219844,5.451935805796115
0.2500500100020004,9.790984586812942e-15
0.2520504100820164,-5.451935805796081
0.2540508101620324,-9.7797143994527
0.2560512102420484,-12.287963134269052
0.2580516103220644,-12.97509774658388
0.2600520104020804,-12.53332335643041
0.26205241048209643,-12.083632650613392
0.26405281056211244,-12.747023316051846
0.26605321064212845,-15.215715469964955
0.26805361072214445,-19.48814983347571
0.27005401080216046,-24.868988716485465
0.2720544108821764,-30.234119813194873
0.2740548109621924,-34.45944073917928
0.2760552110422084,-36.84964356219671
0.27805561112222443,-37.403218578914114
0.28005601120224044,-36.81245526846781
0.28205641128225645,-36.198440422257896
0.28405681136227245,-36.68227551785265
0.28605721144228846,-38.95629408361752
0.28805761152230447,-43.0190598006864
0.2900580116023205,-48.17536741017154
0.2920584116823365,-53.30124642503845
0.2940588117623525,-57.272745577605335
0.2960592118423685,-59.39471725490267
0.2980596119223845,-59.66582117413802
0.30006001200240046,-58.77852522924739
0.30206041208241646,-57.85410350799821
0.30406081216243247,-58.01385354759431
0.3060612122424485,-59.95031357546867
0.3080616123224645,-63.66226048196282
0.3100620124024805,-68.45471059286884
0.3120624124824965,-73.20392324134728
0.3140628125625125,-76.78618507026646
0.3160632126425285,-78.50659431729319
0.3180636127225445,-78.36406433507277
0.3200640128025605,-77.05132427757896
0.32206441288257653,-75.68991695219954
0.32406481296259254,-75.40141590561187
0.32606521304260855,-76.87864249024261
0.3280656131226245,-80.12066365811889
0.3300660132026405,-84.43279255020153
0.3320664132826565,-88.69159188082752
0.3340668133626725,-91.77365804842832
0.33606721344268853,-92.98440522497111
0.33806761352270454,-92.32306867658876
0.34006801360272054,-90.48270524660192
0.34206841368273655,-88.58519100062941
0.34406881376275256,-87.75243810197006
0.34606921384276856,-88.67761166418545
0.34806961392278457,-91.36012732782405
0.3500700140028006,-95.10565162951531
0.3520704140828166,-98.79110516319993
0.3540708141628326,-101.29344646480317
0.35607121424284854,-101.91845587294317
0.35807161432286455,-100.66573861828174
0.36007201440288056,-98.2287250728689
0.36207241448289657,-95.72966815932446
0.3640728145629126,-94.29085998818938
0.3660732146429286,-94.60584847052506
0.3680736147229446,-96.67443465285487
0.3700740148029606,-99.80267284282715
0.3720744148829766,-102.8678735255213
0.3740748149629926,-104.74738700185736
0.3760752150430086,-104.74738700185739
0.3780756151230246,-102.86787352552129
0.38007601520304063,-99.8026728428272
0.38207641528305664,-96.67443465285493
0.3840768153630726,-94.60584847052509
0.3860772154430886,-94.29085998818935
0.3880776155231046,-95.72966815932445
0.3900780156031206,-98.22872507286881
0.3920784156831366,-100.6657386182817
0.3940788157631526,-101.91845587294317
0.39607921584316863,-101.29344646480315
0.39807961592318464,-98.79110516319997
0.40008001600320064,-95.10565162951539
0.40208041608321665,-91.36012732782409
0.40408081616323266,-88.67761166418542
0.40608121624324867,-87.75243810197001
0.4080816163232647,-88.58519100062932
0.4100820164032807,-90.48270524660187
0.4120824164832967,-92.32306867658868
0.41408281656331264,-92.98440522497106
0.41608321664332865,-91.77365804842836
0.41808361672334465,-88.6915918808276
0.42008401680336066,-84.43279255020148
0.42208441688337667,-80.12066365811886
0.4240848169633927,-76.87864249024264
0.4260852170434087,-75.40141590561187
0.4280856171234247,-75.68991695219947
0.4300860172034407,-77.05132427757886
0.4320864172834567,-78.36406433507268
0.4340868173634727,-78.50659431729318
0.4360872174434887,-76.78618507026646
0.4380876175235047,-73.20392324134724
0.44008801760352073,-68.45471059286892
0.4420884176835367,-63.662260481962875
0.4440888177635527,-59.95031357546869
0.4460892178435687,-58.013853547594245
0.4480896179235847,-57.85410350799812
0.4500900180036007,-58.77852522924733
0.4520904180836167,-59.665821174138024
0.4540908181636327,-59.394717254902666
0.45609121824364873,-57.27274557760529
0.45809161832366474,-53.301246425038535
0.46009201840368075,-48.175367410171596
0.46209241848369675,-43.01905980068644
0.46409281856371276,-38.95629408361749
0.46609321864372877,-36.68227551785267
0.4680936187237448,-36.19844042225788
0.4700940188037607,-36.81245526846781
0.47209441888377673,-37.40321857891396
0.47409481896379274,-36.84964356219664
0.47609521904380875,-34.45944073917929
0.47809561912382476,-30.23411981319492
0.48009601920384076,-24.86898871648548
0.48209641928385677,-19.488149833475713
0.4840968193638728,-15.21571546996495
0.4860972194438888,-12.747023316051841
0.4880976195239048,-12.083632650613346
0.4900980196039208,-12.533323356430294
0.4920984196839368,-12.97509774658382
0.4940988197639528,-12.287963134269026
0.4960992198439688,-9.779714399452711
0.49809961992398477,-5.451935805796081
0.5001000200040008,-1.9581969173625883e-14
0.5021004200840168,5.451935805796129
0.5041008201640328,9.779714399452711
0.5061012202440488,12.287963134269106
0.5081016203240648,12.97509774658388
0.5101020204040808,12.533323356430467
0.5121024204840968,12.08363265061338
0.5141028205641128,12.747023316051877
0.5161032206441288,15.215715469964993
0.5181036207241448,19.48814983347576
0.5201040208041608,24.86898871648553
0.5221044208841769,30.23411981319485
0.5241048209641929,34.459440739179286
0.5261052210442089,36.84964356219672
0.5281056211242249,37.4032185789141
0.5301060212042409,36.812455268467836
0.5321064212842569,36.19844042225792
0.5341068213642729,36.682275517852624
0.5361072214442889,38.95629408361749
0.5381076215243049,43.01905980068637
0.5401080216043209,48.175367410171496
0.5421084216843368,53.3012464250384
0.5441088217643528,57.272745577605335
0.5461092218443688,59.3947172549027
0.5481096219243848,59.665821174138046
0.5501100220044008,58.77852522924727
0.5521104220844169,57.85410350799814
0.5541108221644329,58.013853547594316
0.5561112222444489,59.95031357546866
0.5581116223244649,63.6622604819628
0.5601120224044809,68.45471059286884
0.5621124224844969,73.20392324134728
0.5641128225645129,76.78618507026648
0.5661132226445289,78.50659431729319
0.5681136227245449,78.36406433507283
0.5701140228045609,77.05132427757901
0.5721144228845769,75.6899169521996
0.5741148229645929,75.40141590561193
0.5761152230446089,76.8786424902426
0.5781156231246249,80.12066365811889
0.580116023204641,84.43279255020151
0.582116423284657,88.69159188082764
0.584116823364673,91.77365804842835
0.586117223444689,92.98440522497113
0.588117623524705,92.32306867658882
0.590118023604721,90.48270524660202
0.592118423684737,88.5851910006294
0.594118823764753,87.75243810197004
0.596119223844769,88.67761166418545
0.5981196239247849,91.3601273278241
0.6001200240048009,95.10565162951526
0.6021204240848169,98.79110516319989
0.6041208241648329,101.29344646480313
0.6061212242448489,101.91845587294318
0.6081216243248649,100.66573861828176
0.610122024404881,98.22872507286887
0.612122424484897,95.72966815932443
0.614122824564913,94.29085998818937
0.616123224644929,94.6058484705251
0.618123624724945,96.67443465285481
0.620124024804961,99.80267284282708
0.622124424884977,102.86787352552123
0.624124824964993,104.74738700185736
0.626125225045009,104.74738700185738
0.628125625125025,102.86787352552129
0.630126025205041,99.80267284282714
0.632126425285057,96.67443465285497
0.634126825365073,94.6058484705251
0.636127225445089,94.29085998818933
0.638127625525105,95.72966815932439
0.640128025605121,98.22872507286881
0.6421284256851371,100.66573861828168
0.6441288257651531,101.91845587294314
0.6461292258451691,101.29344646480314
0.6481296259251851,98.79110516319994
0.6501300260052011,95.10565162951546
0.6521304260852171,91.36012732782416
0.6541308261652331,88.67761166418545
0.656131226245249,87.75243810197001
0.658131626325265,88.58519100062935
0.660132026405281,90.48270524660192
0.662132426485297,92.3230686765887
0.664132826565313,92.9844052249711
0.666133226645329,91.77365804842837
0.668133626725345,88.69159188082766
0.670134026805361,84.43279255020157
0.6721344268853771,80.12066365811891
0.6741348269653931,76.87864249024261
0.6761352270454091,75.40141590561186
0.6781356271254251,75.68991695219948
0.6801360272054411,77.051324277579
0.6821364272854571,78.3640643350727
0.6841368273654731,78.50659431729315
0.6861372274454891,76.78618507026647
0.6881376275255051,73.20392324134731
0.6901380276055211,68.45471059286886
0.6921384276855371,63.662260481962754
0.6941388277655531,59.9503135754686
0.6961392278455691,58.01385354759417
0.6981396279255851,57.85410350799814
0.7001400280056012,58.77852522924726
0.7021404280856172,59.665821174137974
0.7041408281656332,59.39471725490265
0.7061412282456492,57.27274557760533
0.7081416283256652,53.30124642503841
0.7101420284056812,48.17536741017146
0.7121424284856971,43.01905980068632
0.7141428285657131,38.95629408361761
0.7161432286457291,36.68227551785266
0.7181436287257451,36.198440422257846
0.7201440288057611,36.81245526846776
0.7221444288857771,37.40321857891403
0.7241448289657931,36.849643562196675
0.7261452290458091,34.4594407391792
0.7281456291258251,30.234119813194905
0.7301460292058412,24.868988716485475
0.7321464292858572,19.488149833475866
0.7341468293658732,15.215715469964982
0.7361472294458892,12.74702331605183
0.7381476295259052,12.083632650613305
0.7401480296059212,12.53332335643038
0.7421484296859372,12.975097746583804
0.7441488297659532,12.287963134268972
0.7461492298459692,9.779714399452654
0.7481496299259852,5.4519358057962375
0.7501500300060012,1.0042722733644884e-13
0.7521504300860172,-5.451935805796061
0.7541508301660332,-9.779714399452722
0.7561512302460492,-12.28796313426907
0.7581516303260653,-12.975097746583897
0.7601520304060813,-12.53332335643061
0.7621524304860973,-12.08363265061351
0.7641528305661133,-12.747023316051795
0.7661532306461293,-15.215715469964872
0.7681536307261452,-19.488149833475692
0.7701540308061612,-24.868988716485447
0.7721544308861772,-30.2341198131949
0.7741548309661932,-34.4594407391793
0.7761552310462092,-36.84964356219677
0.7781556311262252,-37.403218578914235
0.7801560312062412,-36.81245526846798
0.7821564312862572,-36.19844042225788
0.7841568313662732,-36.68227551785263
0.7861572314462892,-38.95629408361751
0.7881576315263052,-43.01905980068642
0.7901580316063213,-48.17536741017156
0.7921584316863373,-53.30124642503839
0.7941588317663533,-57.27274557760538
0.7961592318463693,-59.39471725490279
0.7981596319263853,-59.66582117413802
0.8001600320064013,-58.77852522924733
0.8021604320864173,-57.85410350799818
0.8041608321664333,-58.01385354759429
0.8061612322464493,-59.95031357546867
0.8081616323264653,-63.66226048196284
0.8101620324064813,-68.45471059286882
0.8121624324864973,-73.20392324134728
0.8141628325665133,-76.7861850702665
0.8161632326465293,-78.50659431729318
0.8181636327265454,-78.36406433507275
0.8201640328065614,-77.05132427757907
0.8221644328865774,-75.68991695219954
0.8241648329665934,-75.40141590561196
0.8261652330466093,-76.87864249024267
0.8281656331266253,-80.12066365811887
0.8301660332066413,-84.43279255020164
0.8321664332866573,-88.69159188082753
0.8341668333666733,-91.77365804842826
0.8361672334466893,-92.98440522497108
0.8381676335267053,-92.32306867658886
0.8401680336067213,-90.48270524660195
0.8421684336867373,-88.5851910006295
0.8441688337667533,-87.75243810197006
0.8461692338467693,-88.67761166418543
0.8481696339267853,-91.36012732782413
0.8501700340068014,-95.10565162951531
0.8521704340868174,-98.79110516319983
0.8541708341668334,-101.29344646480315
0.8561712342468494,-101.91845587294321
0.8581716343268654,-100.66573861828171
0.8601720344068814,-98.22872507286897
0.8621724344868974,-95.7296681593244
0.8641728345669134,-94.29085998818938
0.8661732346469294,-94.60584847052502
0.8681736347269454,-96.67443465285486
0.8701740348069614,-99.80267284282701
0.8721744348869774,-102.8678735255213
0.8741748349669934,-104.74738700185735
0.8761752350470094,-104.74738700185736
0.8781756351270255,-102.86787352552135
0.8801760352070415,-99.80267284282735
0.8821764352870574,-96.67443465285491
0.8841768353670734,-94.60584847052513
0.8861772354470894,-94.29085998818935
0.8881776355271054,-95.72966815932433
0.8901780356071214,-98.22872507286888
0.8921784356871374,-100.66573861828164
0.8941788357671534,-101.91845587294316
0.8961792358471694,-101.29344646480315
0.8981796359271854,-98.79110516320007
0.9001800360072014,-95.10565162951539
0.9021804360872174,-91.36012732782422
0.9041808361672334,-88.67761166418543
0.9061812362472494,-87.75243810197
0.9081816363272655,-88.58519100062941
0.9101820364072815,-90.48270524660185
0.9121824364872975,-92.32306867658879
0.9141828365673135,-92.98440522497104
0.9161832366473295,-91.77365804842842
0.9181836367273455,-88.69159188082762
0.9201840368073615,-84.43279255020164
0.9221844368873775,-80.12066365811887
0.9241848369673935,-76.87864249024263
0.9261852370474095,-75.40141590561188
0.9281856371274255,-75.68991695219944
0.9301860372074415,-77.05132427757867
0.9321864372874575,-78.36406433507277
0.9341868373674735,-78.50659431729314
0.9361872374474896,-76.78618507026647
0.9381876375275056,-73.20392324134737
0.9401880376075215,-68.4547105928688
0.9421884376875375,-63.66226048196281
0.9441888377675535,-59.95031357546868
0.9461892378475695,-58.013853547594195
0.9481896379275855,-57.85410350799795
0.9501900380076015,-58.77852522924734
0.9521904380876175,-59.66582117413794
0.9541908381676335,-59.39471725490269
0.9561912382476495,-57.272745577605356
0.9581916383276655,-53.30124642503836
0.9601920384076815,-48.17536741017153
0.9621924384876975,-43.01905980068649
0.9641928385677135,-38.956294083617436
0.9661932386477295,-36.68227551785265
0.9681936387277456,-36.19844042225792
0.9701940388077616,-36.812455268467694
0.9721944388877776,-37.4032185789141
0.9741948389677936,-36.84964356219666
0.9761952390478096,-34.459440739179186
0.9781956391278256,-30.234119813194855
0.9801960392078416,-24.868988716485553
0.9821964392878576,-19.488149833475646
0.9841968393678736,-15.215715469965014
0.9861972394478896,-12.747023316051864
0.9881976395279056,-12.08363265061326
0.9901980396079216,-12.533323356430465
0.9921984396879376,-12.97509774658376
0.9941988397679536,-12.287963134268917
0.9961992398479695,-9.779714399452645
0.9981996399279855,-5.451935805796127
1.0002000400080016,-3.9163938347251766e-14
1.0022004400880176,5.451935805795993
1.0042008401680336,9.77971439945273
1.0062012402480496,12.28796313426908
1.0082016403280656,12.975097746584055
1.0102020404080816,12.533323356430525
1.0122024404880976,12.083632650613556
1.0142028405681136,12.74702331605194
1.0162032406481296,15.215715469964836
1.0182036407281456,19.488149833475738
1.0202040408081616,24.868988716485365
1.0222044408881776,30.234119813194944
1.0242048409681936,34.45944073917927
1.0262052410482096,36.84964356219682
1.0282056411282257,37.403218578914164
1.0302060412082417,36.81245526846803
1.0322064412882577,36.19844042225798
1.0342068413682737,36.682275517852645
1.0362072414482897,38.956294083617514
1.0382076415283057,43.01905980068635
1.0402080416083217,48.175367410171624
1.0422084416883377,53.30124642503845
1.0442088417683537,57.272745577605335
1.0462092418483697,59.394717254902744
1.0482096419283857,59.66582117413821
1.0502100420084017,58.77852522924725
1.0522104420884177,57.85410350799823
